time ASI [ms]	maximum liquid length [mm]	standard deviation [mm]	error &plusmn;2sigma/sqrt(N) [mm]
-0.1	0	0	0.1
-0.095	0	0	0.1
-0.09	0	0	0.1
-0.085	0	0	0.1
-0.08	0	0	0.1
-0.075	0	0	0.1
-0.07	0	0	0.1
-0.065	0	0	0.1
-0.06	0	0	0.1
-0.055	0	0	0.1
-0.05	0	0	0.1
-0.045	0	0	0.1
-0.04	0	0	0.1
-0.035	0	0	0.1
-0.03	0	0	0.1
-0.025	0	0	0.1
-0.02	0	0	0.1
-0.015	0	0	0.1
-0.01	0	0	0.1
-0.005	0	0	0.1
0	0	0	0.1
0.005	0.46394	0.29237	0.23415
0.01	1.2657	0.52419	0.34051
0.015	2.3624	0.60748	0.37873
0.02	3.8346	0.33025	0.25153
0.025	5.3031	0.10931	0.15015
0.03	6.4195	0.060259	0.12765
0.035	7.263	0.13502	0.16195
0.04	7.8618	0.15254	0.16999
0.045	8.2861	0.21062	0.19664
0.05	8.4469	0.25867	0.21868
0.055	8.4416	0.37437	0.27177
0.06	8.4137	0.45956	0.31086
0.065	8.3825	0.34303	0.25739
0.07	8.3227	0.40126	0.28411
0.075	8.3062	0.47261	0.31685
0.08	8.331	0.42125	0.29328
0.085	8.4304	0.38265	0.27557
0.09	8.5417	0.3943	0.28092
0.095	8.5598	0.41597	0.29086
0.1	8.6033	0.37639	0.2727
0.105	8.7034	0.41228	0.28917
0.11	8.8508	0.35244	0.26171
0.115	8.9697	0.44089	0.30229
0.12	9.0505	0.53944	0.34751
0.125	9.1388	0.49959	0.32923
0.13	9.2267	0.4637	0.31276
0.135	9.282	0.45999	0.31106
0.14	9.3349	0.41442	0.29015
0.145	9.4225	0.46535	0.31352
0.15	9.4627	0.51542	0.33649
0.155	9.4964	0.47244	0.31677
0.16	9.5766	0.47272	0.3169
0.165	9.6006	0.49982	0.32934
0.17	9.5976	0.47844	0.31953
0.175	9.6164	0.41505	0.29044
0.18	9.6831	0.34113	0.25652
0.185	9.7852	0.38408	0.27623
0.19	9.846	0.43786	0.3009
0.195	9.8144	0.46729	0.31441
0.2	9.8279	0.40532	0.28598
0.205	9.8864	0.27463	0.22601
0.21	9.9322	0.25571	0.21733
0.215	9.9543	0.28906	0.23263
0.22	9.9172	0.3706	0.27004
0.225	9.9258	0.52372	0.3403
0.23	9.9919	0.44428	0.30385
0.235	10.064	0.44117	0.30242
0.24	10.109	0.55092	0.35278
0.245	10.038	0.48602	0.323
0.25	9.9528	0.43967	0.30174
0.255	9.965	0.38274	0.27561
0.26	10.021	0.35988	0.26512
0.265	10.048	0.3348	0.25362
0.27	9.9723	0.38251	0.27551
0.275	9.9047	0.45843	0.31034
0.28	9.9331	0.46477	0.31325
0.285	10.026	0.4798	0.32015
0.29	10.112	0.47174	0.31645
0.295	10.12	0.44232	0.30295
0.3	10.138	0.41036	0.28829
0.305	10.204	0.44397	0.30371
0.31	10.159	0.46824	0.31484
0.315	10.043	0.51321	0.33548
0.32	10.006	0.45674	0.30957
0.325	10.019	0.34073	0.25634
0.33	9.9951	0.36617	0.26801
0.335	9.991	0.32167	0.24759
0.34	9.9608	0.26479	0.2215
0.345	10.003	0.24204	0.21105
0.35	10.074	0.32479	0.24902
0.355	10.056	0.4286	0.29666
0.36	9.9563	0.52637	0.34151
0.365	9.953	0.47513	0.318
0.37	10.074	0.39078	0.2793
0.375	10.158	0.31098	0.24269
0.38	10.19	0.27984	0.2284
0.385	10.202	0.29008	0.2331
0.39	10.163	0.31841	0.2461
0.395	10.113	0.39821	0.28271
0.4	10.077	0.44612	0.30469
0.405	10.071	0.48559	0.32281
0.41	10.132	0.50864	0.33338
0.415	10.107	0.47042	0.31584
0.42	10.037	0.42305	0.29411
0.425	10.033	0.37714	0.27304
0.43	10.088	0.38494	0.27662
0.435	10.147	0.41423	0.29006
0.44	10.149	0.39987	0.28347
0.445	10.113	0.35752	0.26404
0.45	10.083	0.3313	0.25201
0.455	10.049	0.41272	0.28937
0.46	10.035	0.46714	0.31434
0.465	10.044	0.36977	0.26966
0.47	9.9689	0.32615	0.24965
0.475	9.8945	0.46153	0.31177
0.48	9.9376	0.43228	0.29834
0.485	9.9948	0.3911	0.27945
0.49	10.023	0.41318	0.28958
0.495	9.9781	0.43148	0.29798
0.5	9.9289	0.45671	0.30955
0.505	9.9499	0.42691	0.29588
0.51	9.9824	0.42528	0.29513
0.515	9.9809	0.43887	0.30137
0.52	9.9786	0.48219	0.32124
0.525	9.9463	0.44053	0.30213
0.53	9.8925	0.43512	0.29965
0.535	9.8158	0.37867	0.27374
0.54	9.8287	0.34746	0.25943
0.545	9.8554	0.37074	0.27011
0.55	9.8938	0.38735	0.27773
0.555	9.9963	0.39057	0.2792
0.56	10.082	0.33013	0.25148
0.565	10.111	0.29404	0.23491
0.57	10.088	0.28595	0.2312
0.575	10.102	0.32116	0.24736
0.58	10.138	0.39254	0.28011
0.585	10.11	0.40496	0.28581
0.59	10.034	0.39021	0.27904
0.595	9.9644	0.33267	0.25264
0.6	9.9204	0.25201	0.21563
0.605	9.9969	0.3618	0.26601
0.61	10.07	0.39983	0.28345
0.615	10.022	0.38118	0.2749
0.62	9.9126	0.35535	0.26305
0.625	9.8647	0.38363	0.27602
0.63	9.92	0.39052	0.27919
0.635	10.064	0.43014	0.29736
0.64	10.154	0.52149	0.33927
0.645	10.138	0.59682	0.37384
0.65	10.127	0.58642	0.36907
0.655	10.118	0.43678	0.30041
0.66	10.103	0.35109	0.26109
0.665	10.141	0.34355	0.25763
0.67	10.164	0.29988	0.23759
0.675	10.149	0.36147	0.26585
0.68	10.074	0.38555	0.2769
0.685	9.9864	0.35055	0.26084
0.69	9.9473	0.36927	0.26943
0.695	9.9642	0.40831	0.28735
0.7	10.012	0.452	0.30739
0.705	10.014	0.49324	0.32631
0.71	10.011	0.47205	0.31659
0.715	9.9952	0.39985	0.28346
0.72	9.9187	0.4657	0.31368
0.725	9.8682	0.46821	0.31483
0.73	9.8582	0.43042	0.29749
0.735	9.8945	0.43729	0.30064
0.74	9.9795	0.41172	0.28891
0.745	9.9848	0.3696	0.26958
0.75	9.9779	0.42175	0.29351
0.755	10.002	0.52515	0.34096
0.76	9.9819	0.466	0.31382
0.765	9.9124	0.4092	0.28775
0.77	9.8389	0.33932	0.25569
0.775	9.8516	0.25127	0.21529
0.78	9.9133	0.25247	0.21584
0.785	9.9455	0.28908	0.23264
0.79	9.9082	0.37946	0.27411
0.795	9.9268	0.41971	0.29258
0.8	9.9664	0.48372	0.32195
0.805	9.9491	0.4693	0.31533
0.81	9.9375	0.43155	0.29801
0.815	9.9536	0.38531	0.27679
0.82	9.978	0.38991	0.2789
0.825	10.002	0.45825	0.31026
0.83	9.9407	0.4087	0.28752
0.835	9.8614	0.42031	0.29285
0.84	9.856	0.35995	0.26516
0.845	9.9526	0.32858	0.25076
0.85	10.033	0.33924	0.25565
0.855	10.054	0.38763	0.27786
0.86	9.9449	0.38387	0.27613
0.865	9.8684	0.44587	0.30458
0.87	9.8944	0.48503	0.32255
0.875	9.889	0.46143	0.31172
0.88	9.8987	0.5142	0.33593
0.885	9.9621	0.48342	0.32181
0.89	9.996	0.41079	0.28848
0.895	10.015	0.51511	0.33635
0.9	10.046	0.59855	0.37463
0.905	10.043	0.5094	0.33373
0.91	10.03	0.34438	0.25801
0.915	10.027	0.33515	0.25378
0.92	10.036	0.35914	0.26479
0.925	10.06	0.43135	0.29792
0.93	10.122	0.4494	0.3062
0.935	10.127	0.35974	0.26506
0.94	10.077	0.37134	0.27038
0.945	9.9209	0.41626	0.29099
0.95	9.8085	0.45052	0.30671
0.955	9.8167	0.40384	0.2853
0.96	9.8702	0.43633	0.3002
0.965	9.9396	0.34353	0.25762
0.97	9.9753	0.25655	0.21771
0.975	10.014	0.30818	0.2414
0.98	10.023	0.31529	0.24467
0.985	10.009	0.33544	0.25391
0.99	9.9378	0.38311	0.27578
0.995	9.8942	0.41802	0.2918
1	9.9678	0.36903	0.26932
1.005	10.016	0.4336	0.29895
1.01	10.004	0.39745	0.28236
1.015	10.082	0.35744	0.264
1.02	10.109	0.40349	0.28513
1.025	9.9823	0.44424	0.30383
1.03	9.8771	0.4352	0.29969
1.035	9.928	0.32679	0.24994
1.04	10.013	0.24242	0.21123
1.045	10.021	0.30484	0.23987
1.05	10.019	0.25116	0.21524
1.055	10.064	0.18813	0.18632
1.06	10.105	0.33629	0.2543
1.065	10.106	0.45565	0.30907
1.07	10.136	0.44913	0.30607
1.075	10.122	0.44506	0.30421
1.08	10.057	0.49345	0.32641
1.085	10.05	0.57653	0.36453
1.09	10.12	0.49103	0.3253
1.095	10.103	0.48536	0.3227
1.1	10.025	0.48483	0.32246
1.105	9.9694	0.44352	0.3035
1.11	10.017	0.35127	0.26117
1.115	10.072	0.31239	0.24333
1.12	10.038	0.34138	0.25664
1.125	9.9694	0.46862	0.31502
1.13	9.9948	0.41837	0.29196
1.135	10.03	0.41247	0.28925
1.14	10.015	0.46316	0.31251
1.145	10.011	0.43643	0.30025
1.15	10.047	0.42172	0.2935
1.155	10.086	0.38521	0.27674
1.16	10.078	0.33601	0.25417
1.165	10.054	0.33949	0.25577
1.17	9.9968	0.4028	0.28482
1.175	9.9493	0.42907	0.29687
1.18	9.9622	0.41139	0.28876
1.185	9.9603	0.41637	0.29104
1.19	9.9794	0.36839	0.26903
1.195	10.052	0.36292	0.26652
1.2	10.064	0.35729	0.26393
1.205	10.041	0.45016	0.30655
1.21	10.023	0.36157	0.2659
1.215	9.9951	0.38527	0.27677
1.22	9.9744	0.40207	0.28448
1.225	10.034	0.45208	0.30743
1.23	10.127	0.54529	0.3502
1.235	10.097	0.45795	0.31012
1.24	10.049	0.3858	0.27702
1.245	10.035	0.41753	0.29158
1.25	10.093	0.4602	0.31115
1.255	10.139	0.44096	0.30233
1.26	10.11	0.46128	0.31165
1.265	10.053	0.4541	0.30836
1.27	10.056	0.40519	0.28592
1.275	10.042	0.42033	0.29286
1.28	10.06	0.36344	0.26676
1.285	10.085	0.42859	0.29665
1.29	10.015	0.41357	0.28976
1.295	9.9786	0.4088	0.28757
1.3	9.9769	0.48419	0.32216
1.305	9.991	0.49397	0.32665
1.31	10.012	0.45361	0.30813
1.315	10.009	0.46768	0.31459
1.32	9.9415	0.40635	0.28645
1.325	9.9919	0.4019	0.2844
1.33	10.123	0.5528	0.35364
1.335	10.192	0.52038	0.33877
1.34	10.211	0.49665	0.32788
1.345	10.188	0.39175	0.27975
1.35	10.142	0.39137	0.27957
1.355	10.124	0.3587	0.26458
1.36	10.124	0.35713	0.26386
1.365	10.08	0.44319	0.30335
1.37	10.054	0.45164	0.30723
1.375	10.07	0.41805	0.29181
1.38	10.1	0.3528	0.26188
1.385	10.097	0.35168	0.26136
1.39	10.084	0.4419	0.30276
1.395	10.135	0.37883	0.27382
1.4	10.201	0.42052	0.29295
1.405	10.224	0.51384	0.33577
1.41	10.205	0.55814	0.35609
1.415	10.207	0.47525	0.31806
1.42	10.234	0.42525	0.29512
1.425	10.279	0.48141	0.32089
1.43	10.262	0.50527	0.33184
1.435	10.158	0.49152	0.32552
1.44	10.156	0.4334	0.29886
1.445	10.143	0.35697	0.26379
1.45	10.103	0.313	0.24361
1.455	10.142	0.34299	0.25737
1.46	10.219	0.44049	0.30211
1.465	10.259	0.49159	0.32556
1.47	10.231	0.48255	0.32141
1.475	10.152	0.45618	0.30931
1.48	10.076	0.38997	0.27893
1.485	10.025	0.3506	0.26087
1.49	10.091	0.31308	0.24365
1.495	10.211	0.34118	0.25654
1.5	10.276	0.39877	0.28297
1.505	10.147	0.4072	0.28684
1.51	9.9508	0.53149	0.34386
1.515	9.8457	0.69714	0.41987
1.52	9.793	0.68901	0.41614
1.525	9.6856	0.66379	0.40457
1.53	9.6322	0.60342	0.37687
1.535	9.6048	0.4914	0.32547
1.54	9.4472	0.47489	0.3179
1.545	9.2557	0.56201	0.35787
1.55	9.1003	0.89443	0.51039
1.555	8.9267	1.2992	0.69611
1.56	8.6693	1.4681	0.77362
1.565	8.3612	1.6084	0.83798
1.57	7.9706	1.8363	0.94254
1.575	7.562	2.1524	1.0876
1.58	7.0475	2.4844	1.2399
1.585	6.3805	2.7466	1.3602
1.59	5.7404	2.76	1.3664
1.595	5.2729	2.5104	1.2519
1.6	4.8341	2.3142	1.1618
1.605	4.1453	2.216	1.1168
1.61	3.4732	2.3666	1.1859
1.615	2.9893	2.4436	1.2212
1.62	2.6156	2.3421	1.1746
1.625	2.28	2.1987	1.1088
1.63	1.938	2.0302	1.0315
1.635	1.6812	1.9725	1.005
1.64	1.4509	1.8786	0.96195
1.645	1.2022	1.7236	0.89084
1.65	0.98291	1.4892	0.78329
1.655	0.78066	1.2286	0.66371
1.66	0.60968	0.99626	0.55712
1.665	0.45802	0.79834	0.46631
1.67	0.32829	0.63944	0.3934
1.675	0.23699	0.52466	0.34073
1.68	0.16403	0.48455	0.32232
1.685	0.15198	0.48462	0.32236
1.69	0.14811	0.48218	0.32124
1.695	0.14463	0.48037	0.32041
1.7	0.10798	0.33571	0.25404
1.705	0.064065	0.17723	0.18132
1.71	0.027721	0.11535	0.15293
1.715	0.043492	0.13876	0.16367
1.72	0.069829	0.21842	0.20022
1.725	0.094212	0.31407	0.2441
1.73	0.076695	0.26907	0.22346
1.735	0.041836	0.15233	0.16989
1.74	0.0086717	0.038781	0.11779
1.745	0	0	0.1
1.75	0	0	0.1
1.755	0	0	0.1
1.76	0	0	0.1
1.765	0	0	0.1
1.77	0	0	0.1
1.775	0	0	0.1
1.78	0	0	0.1
1.785	0	0	0.1
1.79	0	0	0.1
1.795	0	0	0.1
1.8	0	0	0.1
1.805	0	0	0.1
1.81	0	0	0.1
1.815	0	0	0.1
1.82	0	0	0.1
1.825	0	0	0.1
1.83	0	0	0.1
1.835	0	0	0.1
1.84	0	0	0.1
1.845	0	0	0.1
1.85	0	0	0.1
1.855	0	0	0.1
1.86	0	0	0.1
1.865	0	0	0.1
1.87	0	0	0.1
1.875	0	0	0.1
1.88	0	0	0.1
1.885	0	0	0.1
1.89	0	0	0.1
1.895	0	0	0.1
1.9	0	0	0.1
1.905	0	0	0.1
1.91	0	0	0.1
1.915	0	0	0.1
1.92	0	0	0.1
1.925	0	0	0.1
1.93	0	0	0.1
1.935	0	0	0.1
1.94	0	0	0.1
1.945	0	0	0.1
1.95	0	0	0.1
1.955	0	0	0.1
1.96	0	0	0.1
1.965	0	0	0.1
1.97	0	0	0.1
1.975	0	0	0.1
1.98	0	0	0.1
1.985	0	0	0.1
1.99	0	0	0.1
1.995	0	0	0.1
2	0	0	0.1
